t,x_64,y_64,z,theta
0.0,54.980227467163054,41.40952552474265,0.503508295248194,0.793950664727975
0.01650000000000001,54.231129521433914,41.28113509803133,0.49666120160316435,0.7745479676008261
0.03300000000000002,54.29943202262345,41.029540603745296,0.5002213068354403,0.770576430586926
0.05000000000000004,54.99404456419893,40.58808600761068,0.5127390358635583,0.7763937564721303
0.06650000000000005,54.603065301970375,39.95416470264787,0.5156488527135642,0.7544797449660382
0.08300000000000006,54.354187782568644,39.187913305794275,0.5218257268887283,0.7333338935016848
0.10000000000000007,54.40246480283047,38.395079024869815,0.5315905175653627,0.7187892747948497
0.11650000000000009,54.4382277407621,37.39601967832307,0.5437962069767358,0.7006593839536285
0.1330000000000001,54.280432450055066,36.27551552708556,0.555746065060878,0.6769549333621296
0.1500000000000001,53.65482925179727,35.11228977090231,0.564110418715279,0.6432583943403566
0.16650000000000012,53.341737337103446,33.8034163928648,0.5777666571247537,0.6152484813618919
0.18350000000000014,53.0505886230485,32.46386484905856,0.5924441028887634,0.5885840957643762
0.20000000000000015,52.465155772619575,31.20185448978912,0.6040514560444754,0.5578604251998228
0.21650000000000016,51.979571629014245,30.084624544882058,0.6150449310990511,0.5323667651538688
0.23350000000000018,50.95680926280096,28.739804762658,0.6255157999731407,0.4932936629237631
0.25000000000000017,50.27880933368104,27.599281674866283,0.6364435113007698,0.4653702677983307
0.2665000000000002,49.174680038939165,26.472998932241214,0.6448499105403539,0.42920729775280536
0.2835000000000002,48.081564556868884,25.495976458806386,0.6519907442070205,0.39563663855870146
0.3000000000000002,46.35694445677826,24.640340054550418,0.6546305697869008,0.34976563033538116
0.3165000000000002,45.18769036415579,23.88263926727262,0.6598335582071324,0.31759983250735624
0.33350000000000024,43.92017554800678,23.356246692172643,0.66180780245723,0.28528428937800665
0.35000000000000026,41.80903266619709,22.79179336600277,0.6618683264825153,0.23368702798507673
0.36650000000000027,40.20102616320994,22.58173765884574,0.6597246713329833,0.1954766294220581
0.3840000000000003,38.9203546352817,22.498947142448838,0.6574075907470983,0.16523102504156528
0.3995000000000003,36.687928018008485,22.560573911134448,0.6516210824377079,0.1126483226951678
0.4165000000000003,34.942422442212504,22.827133887170703,0.6449667569886526,0.07134379450354422
0.43350000000000033,33.09744742044252,23.15888591822434,0.6383727539752017,0.02686467837950245
0.45000000000000034,30.871569011975247,23.616765471913926,0.6312343337020121,-0.02793578672791566
0.46750000000000036,29.01705143157917,24.135695597617936,0.6246211249378759,-0.07468836853220953
0.4835000000000004,27.707278442125872,24.814768264029084,0.6159322370587833,-0.10911436602037101
0.5000000000000003,25.68491534584162,25.437227035808224,0.6105692929899385,-0.16232037847431388
0.5169999999999985,23.888995223829028,26.384497530562797,0.6012508170852898,-0.21237758588866437
0.5329999999999967,22.06835868908881,27.164596598815905,0.5961064347553866,-0.26335964108584586
0.5494999999999949,20.50335129326123,27.875496979261346,0.592340566048699,-0.3081153374984871
0.566999999999993,18.62308889917681,28.804519728457706,0.5883105242848697,-0.363212270175773
0.5834999999999911,17.167250274044058,29.74470036343723,0.5832618110592557,-0.4086321979017822
0.5999999999999893,15.42542636740995,30.512470378563584,0.583825596359925,-0.4595975552249385
0.6169999999999874,13.862191025513498,31.416681051463563,0.582679020425481,-0.50794157066673
0.6334999999999856,13.271868623977968,32.26304919710857,0.5757927939613395,-0.5331119477792724
0.6504999999999838,11.45461230971084,32.88440835816687,0.5826036402245783,-0.5835766353108902
0.6669999999999819,10.27586172213486,33.63962941868917,0.5833150241674854,-0.6210812485915932
0.6829999999999802,9.28868766378659,34.404874654395776,0.5828931647124725,-0.6545447018993248
0.7004999999999783,8.553658180141785,35.17092040446537,0.5806210422403004,-0.6827909703087385
0.7169999999999764,7.450711430984657,35.75741677347455,0.5846989151895435,-0.7155524322994856
0.7334999999999746,6.98479506868644,36.46855299154436,0.5812292192469338,-0.737548846055364
0.7504999999999727,6.18932944376652,36.939156586309444,0.5843164995832557,-0.7617570786742728
0.7669999999999709,5.682781950624787,37.47714879602647,0.5838102221191412,-0.7815065690178037
0.7834999999999691,5.403235961165114,37.81429425280919,0.583187095354039,-0.7931857865126476
0.8004999999999672,5.123387069577814,38.35090158647167,0.5804910561071213,-0.8087636941248761
0.8169999999999654,4.9805420925477355,38.70065082745263,0.5783589421447156,-0.8182637706653941
0.8339999999999635,5.069759124729957,38.9727715753339,0.5744392723281467,-0.8220081485146894
0.8504999999999617,5.096186705679954,39.13539624364971,0.5724091788239762,-0.8247688052164076
0.8669999999999599,5.465525761383599,39.383610430283916,0.5655397377398407,-0.8228791803322137
0.883999999999958,5.626582858879136,39.46441305228569,0.5628367391730859,-0.821482790807917
0.9004999999999562,6.170632703690075,39.509399090758464,0.5561590839990873,-0.8119969609709954
0.9169999999999544,6.674221856876216,39.29488995723681,0.5528109765338509,-0.7978032252552756
0.9339999999999525,7.354170818563105,39.20162806693583,0.5462890044737971,-0.7823130237002371
0.9509999999999507,8.028768571135792,38.852497785335515,0.5428460526503863,-0.7614552414421697
0.9669999999999489,8.903063356551964,38.45330166271902,0.5381224317246638,-0.7350792726652426
0.983999999999947,9.585681420880425,37.984951962896574,0.5365508520455691,-0.7111845868947255
1.0004999999999453,10.077238223426658,37.38151373927074,0.5388136415438319,-0.6889614455379826
1.0174999999999434,11.458154885707756,36.53839935909526,0.5358502367140942,-0.6422331383505401
1.0339999999999416,12.189907505385424,35.676520029283196,0.5400600557734181,-0.6103385912424683
1.0504999999999398,13.33037807177067,34.73621077378147,0.5423752698137682,-0.5678766523019407
1.067499999999938,14.20214141355728,33.67648438216497,0.5493869474152605,-0.5307556736563622
1.0839999999999361,15.345507364530512,32.48225025936793,0.5569914023392014,-0.4861213714663126
1.1004999999999343,16.443899827314638,31.413598443315244,0.564204409736269,-0.44538850578859596
1.1169999999999325,17.470240620176284,29.934719225273167,0.578664710469467,-0.4031632534966011
1.1339999999999306,19.100002335944716,28.72090109281976,0.5869313985969686,-0.3505531986532495
1.1499999999999289,20.27152359164316,27.55191634589626,0.5982600016054711,-0.31132204020312076
1.167499999999927,21.611773601556582,26.097393657702654,0.6140690233520543,-0.2675077496908992
1.1839999999999251,23.147984346029958,25.055723904492847,0.6240255727645824,-0.22350208731087395
1.2014999999999232,25.006022510271833,23.934140225343164,0.6354956313102217,-0.17282067124046588
1.2169999999999215,26.20492301350737,22.878762270014484,0.6488682887037193,-0.14000463163238897
1.2339999999999196,27.71535761106448,22.077916338656074,0.6584448524798953,-0.10185124234201552
1.2509999999999177,30.015809855609824,21.243387904538054,0.6687910487567786,-0.046373356480714466
1.267499999999916,31.415186836115296,20.721353521481834,0.6762905861364469,-0.013511919176584
1.283999999999914,32.691729656757786,20.42913318195559,0.6808805845437531,0.015874633673410493
1.3009999999999122,34.67749138911077,20.438455658695826,0.6819336280253234,0.06138733815323904
1.3174999999999104,36.11173791100575,20.444651226872065,0.6835780882844489,0.09412365021661125
1.3339999999999086,37.98527115780907,20.72369105721048,0.682628762919428,0.13743180729494606
1.3509999999999067,39.11700493932432,21.39410040097879,0.6749411215546797,0.16551453527818485
1.367499999999905,41.22912299832395,22.061658822459954,0.6709661680316322,0.21661143792550358
1.383999999999903,42.096823852022304,22.944395991821715,0.6606083829610815,0.24114486184219833
1.4014999999999012,43.78409362065979,24.045771175176988,0.6508717980687054,0.28680799946584207
1.4174999999998994,44.85377998175788,25.097546456343263,0.640171438436453,0.3191177216769586
1.4349999999998975,46.247753762869834,26.60683605467973,0.6252435457376311,0.3640429189171209
1.4514999999998957,47.08788503278335,27.978986866074433,0.6102072965916604,0.39666145525143537
1.467499999999894,47.80338439702539,29.27407346579123,0.5961376605835828,0.4270778070754702
1.484499999999892,48.91523793219718,30.74769285115775,0.5829279386813268,0.4705783268413678
1.5009999999998902,49.68812317511974,32.19019443214385,0.5687013697708605,0.5074829976694097
1.5179999999998883,50.288843762514766,33.58779901389453,0.5544968367273717,0.541422826306285
1.5344999999998865,50.854705768226275,34.90138600577999,0.5417684047564368,0.5749390103313836
1.5509999999998847,51.683065474316464,36.13620005794307,0.5330425670986889,0.6150102123998995
1.566999999999883,52.17063181660677,37.132251658593695,0.524946586014728,0.6439730749374583
1.584499999999881,53.030915434141704,38.14477552134917,0.5207585449313388,0.6828648544535848
1.6009999999998792,53.037882818674795,38.96871368683131,0.5109059164512314,0.6989315219328225
1.6179999999998773,53.89600811142653,39.70114640380195,0.5110759219283214,0.7334295708498472
1.6349999999998754,54.1618179756477,40.253155735467324,0.5075260703042784,0.7508862245366007
1.6514999999998736,54.92698109660446,40.506436304490435,0.5129176074202509,0.7731933418278516
1.6679999999998718,55.11552426356762,40.75950559014836,0.51216834790924,0.7827022924596323
1.68449999999987,55.435988526225216,40.73687986742999,0.5159606664297889,0.7890998958078577
1.7009999999998682,55.913753814119794,40.71625302273016,0.5215100929481986,0.7987456799530893
1.7179999999998663,56.58070693997947,40.41154241023005,0.5323120095132678,0.8059945147907827
1.7344999999998645,56.94346647253143,40.010404120725994,0.540741775257911,0.8048890710574892
1.7509999999998627,56.90879078859742,39.53287457775117,0.5455537801139533,0.7943428801999683
1.7679999999998608,57.05153944632533,38.85480284866319,0.5546017910037508,0.7835323529349033
1.784499999999859,57.20932852900859,38.19259593514679,0.5636993181231134,0.773675575345932
1.801499999999857,57.121180064748955,37.35470841249913,0.5721919484629792,0.7559646069139694
1.8179999999998553,57.392633537939986,36.52314244083676,0.5845845921177447,0.7459965106257698
1.8344999999998535,57.089385792310104,35.674194103009846,0.5912423524440447,0.7248822640882179
1.8509999999998517,56.73088222679987,34.7893106365637,0.5980275416949762,0.7025390609422804
1.8679999999998498,56.03102884013468,33.86898030941151,0.6021950194761971,0.6732459448081667
1.884499999999848,55.73566841751814,32.94118088457316,0.6107820694368008,0.652537885429685
1.901499999999846,54.71379512984748,32.05189111999334,0.6124916593440088,0.6180431851981328
1.9184999999998442,53.91407859248476,31.14183962668491,0.6171154118651925,0.5881845877498725
1.9344999999998425,52.80334505770247,30.323537737205065,0.618498069791461,0.5533626144013821
1.9514999999998406,51.36048783826914,29.492977577793333,0.618237454575387,0.5112944115342347
1.9679999999998388,50.43235040847338,28.627940120304295,0.6232268131062653,0.4803841042199957
1.984499999999837,49.2781741034124,27.955268397863264,0.6245619512988531,0.4469945358186353
2.0014999999998357,47.66782996160428,27.265964419079218,0.6239972944477015,0.40315806672052473
2.017499999999841,45.86354719353701,26.724884713275195,0.6214021758623934,0.3560720568162631
2.034999999999847,44.075302481439806,26.196326657270212,0.6200843110324554,0.30917800677514073
2.0519999999998526,42.09854413355578,25.743207547752878,0.6182373907143334,0.25808059370168024
2.067999999999858,40.21004033516494,25.41298028864745,0.6164182018227679,0.20964074192732837
2.0849999999998636,38.764559589440694,25.05365167671332,0.6176476358647571,0.17197352208301916
2.101499999999869,36.29799567417218,24.76820141296473,0.6166644910553398,0.10911871692025313
2.1179999999998746,34.518594851717545,24.715766264980246,0.6150763616874974,0.06402447799958776
2.1354999999998805,32.759993178815,24.516993620352387,0.6170362517220872,0.01924623801156574
2.1509999999998857,30.695939594701237,24.53176152681387,0.6170277526088205,-0.033028739625338484
2.1684999999998915,27.993666142204724,24.47221184015306,0.6207859394073628,-0.10100992789404406
2.184999999999897,26.69853015151173,24.69128809945737,0.6197593593756876,-0.13405865088163588
2.2014999999999025,24.554638924954237,24.914577851577615,0.6216911682705599,-0.18823431308575184
2.218499999999908,23.172064346904047,25.334231637227926,0.6196990218487991,-0.2244664933479097
2.2349999999999137,20.496971570772967,25.623266067813258,0.6259940084533531,-0.2912179153622616
2.2514999999999192,19.193817068016422,26.07611157106027,0.625433372184062,-0.32565848817673904
2.2679999999999247,17.771217897801822,26.57630637409281,0.6255839234606203,-0.3633286211930373
2.2849999999999304,15.945781474615712,27.29078422325474,0.6260351691859839,-0.41227179605001296
2.301499999999936,14.602144130825165,28.0519039098657,0.6240130882553601,-0.45074282524345965
2.3179999999999414,13.33548108715082,28.54014376117051,0.6261250948929666,-0.48450965557396874
2.334999999999947,12.034030914534044,29.457431060944916,0.6234020569560076,-0.5240938405970617
2.3514999999999526,10.75836936519085,30.240721654074882,0.6232192887350281,-0.5616200517696452
2.3684999999999583,9.493121747298925,31.320811530447244,0.6199973474675606,-0.603116711837686
2.384999999999964,8.873812503115705,32.181053842098834,0.6146140737515151,-0.6284906764722238
2.4019999999999695,8.562856584896338,33.121857830998565,0.6057100034009839,-0.649249286978304
2.418499999999975,7.754124476391951,34.156658766874195,0.6007985197174657,-0.6822794310826277
2.4344999999999803,7.476418564074623,34.971455646560024,0.5937628357420341,-0.7014728096997855
2.451999999999986,7.162120930193025,36.019363524472574,0.5845997759263825,-0.7259671781700779
2.4684999999999917,6.925571893961936,36.92004716551683,0.5766558169661473,-0.7469634804803248
2.484499999999997,6.913655643341216,37.67691447286031,0.5681636539831758,-0.7613461037168401
2.502000000000003,6.753923083351609,38.51784158641645,0.5604791819091832,-0.7807443489872735
2.5190000000000086,7.504398273849047,39.26836667616954,0.5438954975036463,-0.7806034641071908
2.535000000000014,7.583266613858458,39.857906095134865,0.5365128943292548,-0.791053912686467
2.5520000000000196,7.403943455224938,40.28247117676826,0.5338829905661626,-0.803580024768248
2.568500000000025,7.993148022426824,40.65017401533861,0.5232726688669811,-0.799271261545563
2.5850000000000306,8.098278794385998,40.81675815434787,0.5202808218267949,-0.8006561896711846
2.6020000000000363,8.510624502426744,40.909573464162676,0.5146578426851455,-0.7939628027811594
2.618500000000042,9.251096606639521,40.722597689862575,0.5085571616803722,-0.7739161275652839
2.6355000000000475,9.253297962698916,40.449265787906874,0.5115963678804984,-0.7680332416608147
2.652000000000053,9.729681032889243,39.98172275299146,0.5117860759171656,-0.747653917935875
2.6685000000000585,10.481390830316876,39.44580579082561,0.5101410540088015,-0.7196065537456747
2.685500000000064,11.118518033877589,38.711599326008674,0.5124284195795811,-0.6902363880696335
2.7020000000000697,11.27982234296802,37.73231884501861,0.5227530122029604,-0.6678796812200577
2.718500000000075,11.705648365712708,36.72983208281726,0.5311403302442521,-0.6397762299667797
2.735500000000081,12.37516652030148,35.601371688494275,0.5393717815393526,-0.6046930428153975
2.7520000000000864,13.028805458893585,34.394340949541906,0.5494140322561485,-0.569877845329126
2.7680000000000917,13.429257156330237,32.99665796663572,0.5646831996506071,-0.5396777328890306
2.7855000000000976,14.306946258233495,31.528044008540764,0.5778022909751472,-0.4988975043542729
2.801500000000103,15.191671034620859,30.3000349262659,0.5884233868335631,-0.46265831036578403
2.819500000000109,16.107857458064377,28.490297695259837,0.6078705692747007,-0.42080936474561076
2.8355000000001143,16.731320509470756,27.21662904201848,0.6222888369448534,-0.39345319846391424
2.8520000000001198,18.022956939559396,25.89681761060868,0.634153717739485,-0.3515807283736004
2.8690000000001254,19.517360751854266,24.651621299317124,0.6450137756242454,-0.3071917627804242
2.885500000000131,20.830008545663453,23.62963030365074,0.654487114789329,-0.26993472865141793
2.9025000000001366,22.036174578784685,22.490818989164957,0.6670044986903209,-0.23558192742185713
2.919000000000142,23.397596605485454,21.73223787067802,0.6739729345453952,-0.20077942769739318
2.9350000000001475,24.56987246048936,21.099232232396947,0.6803037203554697,-0.17149216155228791
2.952000000000153,26.27310722579884,20.78360334400209,0.6811593691104093,-0.13174904359319753
2.969000000000159,27.90395407620144,20.51939826420322,0.6823923048324484,-0.09392679112144234
2.9855000000001644,29.276747281070335,20.474430932453135,0.6814168495551411,-0.06248528444066132
3.00200000000017,31.589073792178944,20.714783038296922,0.6763619917537914,-0.009493168622739145
3.0190000000001755,32.88733087982782,21.190932250034518,0.669035357801172,0.020724670801621478
3.035500000000181,35.09027961215187,21.688445562753664,0.6628789944430017,0.07290685357577478
3.0525000000001867,36.10709082811587,22.51371202600943,0.6513920424758026,0.09867722211210236
3.0690000000001922,37.816480510975836,23.425593347503064,0.6404561364214338,0.1423833857287358
3.0855000000001978,39.49886239197166,24.43575724474703,0.6291972816462525,0.18731441867946297
3.1025000000002034,40.87197961094646,25.553601149863404,0.6165122110210748,0.22679227228954016
3.119000000000209,42.527428779818145,26.769088618755873,0.6045416327197444,0.27556661677260125
3.1355000000002144,43.89398316576125,28.07410638185403,0.5913059623955187,0.319712112088877
3.15200000000022,45.10887010835779,29.333522820988332,0.5790969691577387,0.36152293281227155
3.1690000000002256,46.60583134481965,30.560720911490577,0.5701553069395933,0.41181155496357597
3.185500000000231,47.66260464002089,31.78775552135954,0.5596599044140266,0.4525721798769483
3.202500000000237,49.158084760835294,32.85998564797567,0.5555342055545152,0.5036090854636184
3.2190000000002423,50.469664245962214,34.032299473088564,0.5500336398246702,0.5523324542854376
3.236000000000248,51.33856955261139,34.989093901022976,0.5447756457078984,0.587954050950013
3.2525000000002535,52.02733466019509,35.99845551245079,0.5379133193014889,0.6208695154261473
3.269000000000259,53.40976913700825,36.664345879603125,0.5425310062536266,0.6644237562770795
3.2855000000002645,53.9770125513719,37.44100225690316,0.5386364806176728,0.6912732896859873
3.30250000000027,54.39874756317941,37.90843626317813,0.5372986520202809,0.7093891269257827
3.3185000000002756,55.89775917971424,38.379531140012034,0.5474352751448854,0.7506227836503756
3.3360000000002814,56.550165443452684,38.77135884310627,0.5500343912197359,0.7717691965622497
3.353000000000287,57.03821873865813,39.00906167409275,0.5527495627361699,0.7863432202692635
3.3690000000002924,57.49122255968171,39.22499810937797,0.5554249381165076,0.7996457464115526
3.3865000000002983,58.28133727262707,39.28531790601248,0.563697553305536,0.8161096309538868
3.4025000000003036,58.82423170005609,39.353626526394976,0.569184057346463,0.827685599029326
3.4195000000003093,59.08895986477741,39.14704549841238,0.5744139961457598,0.8284197907080387
3.436000000000315,58.99189183414533,39.04469076978559,0.5743818185891998,0.8245829529554847
3.45200000000032,58.82198444788037,38.7790278269687,0.5752708870820841,0.8161517487085965
3.469500000000326,59.24720439397628,38.487136424748805,0.5832367664645134,0.8182585555526624
3.4860000000003315,58.86049693227058,38.19767296401919,0.5819649450320425,0.8054887594252786
3.502500000000337,58.79535594132345,37.88113843053168,0.5846728079952075,0.7981822042419304
3.5195000000003427,57.71645301051338,37.40405511469107,0.5780574791195915,0.7685874443252599
